Position,Velocity,Acceleration,Jerk,Heading,DeltaTime,X,Y
0.000, 0.012, 0.591, 29.542, 0.000, 0.000, 0.000, -10.000
0.001, 0.024, 0.591, 0.000, 0.000, 0.020, 0.001, -10.000
0.002, 0.053, 1.477, 44.313, 0.000, 0.040, 0.002, -10.000
0.004, 0.095, 2.068, 29.543, 0.000, 0.060, 0.004, -10.000
0.006, 0.148, 2.659, 29.543, 0.000, 0.080, 0.006, -10.000
0.011, 0.213, 3.250, 29.544, 0.000, 0.100, 0.011, -10.000
0.017, 0.290, 3.841, 29.545, 0.000, 0.120, 0.017, -10.000
0.024, 0.378, 4.432, 29.546, 0.000, 0.140, 0.024, -10.000
0.034, 0.479, 5.022, 29.548, 0.000, 0.160, 0.034, -10.000
0.045, 0.591, 5.614, 29.551, 0.000, 0.180, 0.045, -10.000
0.060, 0.715, 6.205, 29.554, 0.000, 0.200, 0.060, -10.000
0.077, 0.851, 6.796, 29.558, 0.000, 0.220, 0.077, -10.000
0.097, 0.999, 7.387, 29.563, 0.000, 0.240, 0.097, -10.000
0.120, 1.158, 7.978, 29.569, 0.000, 0.260, 0.120, -10.000
0.147, 1.330, 8.570, 29.575, 0.000, 0.280, 0.147, -10.000
0.177, 1.513, 9.162, 29.583, 0.000, 0.300, 0.177, -10.000
0.211, 1.708, 9.753, 29.592, 0.000, 0.320, 0.211, -10.000
0.249, 1.915, 10.345, 29.601, 0.000, 0.340, 0.249, -10.000
0.292, 2.134, 10.938, 29.612, 0.000, 0.360, 0.292, -10.000
0.339, 2.364, 11.530, 29.625, 0.000, 0.380, 0.339, -10.000
0.391, 2.607, 12.123, 29.638, 0.000, 0.400, 0.391, -10.000
0.449, 2.861, 12.716, 29.653, 0.000, 0.420, 0.449, -10.000
0.511, 3.127, 13.309, 29.670, 0.000, 0.440, 0.511, -10.000
0.579, 3.405, 13.903, 29.688, 0.000, 0.460, 0.579, -10.000
0.653, 3.695, 14.497, 29.707, 0.000, 0.480, 0.653, -10.000
0.733, 3.997, 15.092, 29.728, 0.000, 0.500, 0.733, -10.000
0.819, 4.311, 15.687, 29.751, 0.000, 0.520, 0.819, -10.000
0.912, 4.636, 16.282, 29.775, 0.000, 0.540, 0.912, -10.000
1.011, 4.974, 16.878, 29.801, 0.000, 0.560, 1.011, -10.000
1.118, 5.323, 17.475, 29.829, 0.000, 0.580, 1.118, -10.000
1.232, 5.685, 18.072, 29.858, 0.000, 0.600, 1.232, -10.000
1.353, 6.058, 18.670, 29.890, 0.000, 0.620, 1.353, -10.000
1.482, 6.444, 19.268, 29.923, 0.000, 0.640, 1.482, -10.000
1.618, 6.841, 19.868, 29.958, 0.000, 0.660, 1.618, -10.000
1.763, 7.250, 20.467, 29.995, 0.000, 0.680, 1.763, -10.000
1.917, 7.672, 21.068, 30.034, 0.000, 0.700, 1.917, -10.000
2.079, 8.105, 21.670, 30.075, 0.000, 0.720, 2.079, -10.000
2.250, 8.551, 22.272, 30.117, 0.000, 0.740, 2.250, -10.000
2.430, 9.008, 22.875, 30.162, 0.000, 0.760, 2.430, -10.000
2.620, 9.478, 23.479, 30.208, 0.000, 0.780, 2.620, -10.000
2.819, 9.959, 24.084, 30.256, 0.000, 0.800, 2.819, -10.000
3.028, 10.453, 24.691, 30.306, 0.000, 0.820, 3.028, -10.000
3.247, 10.959, 25.298, 30.357, 0.001, 0.840, 3.247, -9.999
3.477, 11.477, 25.906, 30.411, 0.001, 0.860, 3.477, -9.999
3.717, 12.007, 26.515, 30.465, 0.001, 0.880, 3.717, -9.999
3.968, 12.550, 27.126, 30.522, 0.001, 0.900, 3.968, -9.999
4.230, 13.105, 27.737, 30.580, 0.001, 0.920, 4.230, -9.999
4.503, 13.672, 28.350, 30.639, 0.001, 0.940, 4.503, -9.998
4.788, 14.251, 28.964, 30.700, 0.001, 0.960, 4.788, -9.998
5.085, 14.843, 29.579, 30.762, 0.001, 0.980, 5.085, -9.998
5.394, 15.447, 30.196, 30.825, 0.001, 1.000, 5.394, -9.997
5.715, 16.063, 30.814, 30.889, 0.002, 1.020, 5.715, -9.997
6.049, 16.691, 31.433, 30.953, 0.002, 1.040, 6.049, -9.996
6.396, 17.333, 32.053, 31.019, 0.002, 1.060, 6.396, -9.996
6.756, 17.986, 32.675, 31.085, 0.002, 1.080, 6.756, -9.995
7.129, 18.652, 33.298, 31.151, 0.002, 1.100, 7.129, -9.994
7.515, 19.330, 33.922, 31.218, 0.003, 1.120, 7.515, -9.993
7.916, 20.021, 34.548, 31.285, 0.003, 1.140, 7.916, -9.992
8.330, 20.725, 35.175, 31.351, 0.003, 1.160, 8.330, -9.990
8.759, 21.435, 35.505, 16.525, 0.004, 1.180, 8.759, -9.989
9.202, 22.146, 35.539, 1.671, 0.004, 1.200, 9.202, -9.987
9.659, 22.857, 35.573, 1.691, 0.004, 1.220, 9.659, -9.985
10.130, 23.569, 35.607, 1.708, 0.005, 1.240, 10.130, -9.983
10.616, 24.282, 35.641, 1.721, 0.005, 1.260, 10.616, -9.981
11.116, 24.996, 35.676, 1.731, 0.006, 1.280, 11.116, -9.978
11.630, 25.710, 35.710, 1.737, 0.006, 1.300, 11.630, -9.975
12.159, 26.425, 35.745, 1.741, 0.007, 1.320, 12.159, -9.971
12.701, 27.140, 35.780, 1.740, 0.008, 1.340, 12.701, -9.967
13.259, 27.857, 35.815, 1.736, 0.008, 1.360, 13.258, -9.963
13.830, 28.574, 35.849, 1.729, 0.009, 1.380, 13.830, -9.958
14.416, 29.291, 35.884, 1.717, 0.010, 1.400, 14.416, -9.953
15.016, 30.010, 35.918, 1.702, 0.010, 1.420, 15.016, -9.947
15.631, 30.729, 35.951, 1.683, 0.011, 1.440, 15.630, -9.940
16.260, 31.448, 35.985, 1.660, 0.012, 1.460, 16.259, -9.933
16.903, 32.169, 36.017, 1.634, 0.013, 1.480, 16.903, -9.925
17.561, 32.890, 36.049, 1.603, 0.014, 1.500, 17.560, -9.916
18.233, 33.611, 36.081, 1.568, 0.015, 1.520, 18.233, -9.907
18.920, 34.334, 36.111, 1.529, 0.016, 1.540, 18.919, -9.896
19.621, 35.056, 36.141, 1.486, 0.017, 1.560, 19.620, -9.885
20.336, 35.780, 36.170, 1.439, 0.018, 1.580, 20.336, -9.872
21.066, 36.504, 36.198, 1.388, 0.019, 1.600, 21.066, -9.858
21.811, 37.228, 36.224, 1.332, 0.020, 1.620, 21.810, -9.844
22.570, 37.953, 36.250, 1.272, 0.022, 1.640, 22.569, -9.828
23.344, 38.679, 36.274, 1.207, 0.023, 1.660, 23.342, -9.810
24.132, 39.405, 36.297, 1.138, 0.025, 1.680, 24.130, -9.791
24.934, 40.131, 36.318, 1.065, 0.026, 1.700, 24.933, -9.771
25.752, 40.858, 36.338, 0.987, 0.028, 1.720, 25.749, -9.749
26.583, 41.585, 36.356, 0.905, 0.029, 1.740, 26.581, -9.726
27.429, 42.312, 36.372, 0.818, 0.031, 1.760, 27.427, -9.700
28.290, 43.040, 36.387, 0.726, 0.033, 1.780, 28.287, -9.673
29.166, 43.768, 36.399, 0.630, 0.034, 1.800, 29.162, -9.644
30.056, 44.496, 36.410, 0.530, 0.036, 1.820, 30.051, -9.612
30.960, 45.225, 36.418, 0.425, 0.038, 1.840, 30.955, -9.579
31.879, 45.953, 36.425, 0.315, 0.040, 1.860, 31.873, -9.543
32.813, 46.682, 36.429, 0.201, 0.042, 1.880, 32.806, -9.504
33.761, 47.410, 36.430, 0.082, 0.044, 1.900, 33.754, -9.463
34.724, 48.139, 36.429, -0.041, 0.046, 1.920, 34.715, -9.420
35.701, 48.867, 36.426, -0.169, 0.049, 1.940, 35.692, -9.373
36.693, 49.596, 36.420, -0.301, 0.051, 1.960, 36.682, -9.324
37.699, 50.324, 36.411, -0.437, 0.053, 1.980, 37.687, -9.272
38.721, 51.052, 36.400, -0.577, 0.056, 2.000, 38.707, -9.216
39.756, 51.780, 36.385, -0.722, 0.058, 2.020, 39.741, -9.157
40.806, 52.507, 36.368, -0.870, 0.061, 2.040, 40.789, -9.095
41.871, 53.234, 36.348, -1.022, 0.063, 2.060, 41.852, -9.029
42.950, 53.960, 36.324, -1.178, 0.066, 2.080, 42.929, -8.960
44.044, 54.686, 36.297, -1.337, 0.069, 2.100, 44.020, -8.886
45.152, 55.412, 36.267, -1.500, 0.071, 2.120, 45.126, -8.809
46.275, 56.136, 36.234, -1.665, 0.074, 2.140, 46.245, -8.727
47.412, 56.860, 36.197, -1.833, 0.077, 2.160, 47.379, -8.642
48.564, 57.584, 36.157, -2.004, 0.080, 2.180, 48.528, -8.551
49.730, 58.300, 35.810, -17.335, 0.083, 2.200, 49.690, -8.457
50.910, 59.003, 35.157, -32.675, 0.086, 2.220, 50.865, -8.357
52.104, 59.693, 34.500, -32.858, 0.089, 2.240, 52.055, -8.253
53.311, 60.370, 33.839, -33.037, 0.092, 2.260, 53.257, -8.144
54.532, 61.033, 33.175, -33.211, 0.095, 2.280, 54.473, -8.030
55.765, 61.683, 32.507, -33.378, 0.098, 2.300, 55.700, -7.910
57.012, 62.320, 31.836, -33.539, 0.102, 2.320, 56.941, -7.786
58.271, 62.943, 31.163, -33.692, 0.105, 2.340, 58.193, -7.656
59.542, 63.553, 30.486, -33.838, 0.108, 2.360, 59.457, -7.521
60.825, 64.149, 29.806, -33.976, 0.111, 2.380, 60.732, -7.381
62.119, 64.732, 29.124, -34.104, 0.115, 2.400, 62.018, -7.235
63.425, 65.300, 28.440, -34.224, 0.118, 2.420, 63.316, -7.083
64.742, 65.855, 27.753, -34.334, 0.121, 2.440, 64.623, -6.926
66.070, 66.397, 27.064, -34.434, 0.125, 2.460, 65.941, -6.763
67.409, 66.924, 26.374, -34.524, 0.128, 2.480, 67.269, -6.595
68.758, 67.438, 25.682, -34.603, 0.131, 2.500, 68.606, -6.420
70.116, 67.938, 24.988, -34.671, 0.135, 2.520, 69.953, -6.240
71.485, 68.424, 24.294, -34.728, 0.138, 2.540, 71.309, -6.054
72.863, 68.896, 23.598, -34.774, 0.141, 2.560, 72.673, -5.862
74.250, 69.354, 22.902, -34.809, 0.145, 2.580, 74.046, -5.664
75.646, 69.798, 22.206, -34.832, 0.148, 2.600, 75.427, -5.461
77.050, 70.228, 21.509, -34.843, 0.151, 2.620, 76.816, -5.252
78.463, 70.644, 20.812, -34.843, 0.154, 2.640, 78.213, -5.037
79.884, 71.046, 20.115, -34.832, 0.158, 2.660, 79.616, -4.816
81.313, 71.435, 19.419, -34.809, 0.161, 2.680, 81.027, -4.590
82.749, 71.809, 18.724, -34.775, 0.164, 2.700, 82.444, -4.358
84.192, 72.170, 18.029, -34.730, 0.167, 2.720, 83.868, -4.120
85.643, 72.517, 17.335, -34.675, 0.170, 2.740, 85.298, -3.877
87.100, 72.849, 16.643, -34.609, 0.173, 2.760, 86.733, -3.629
88.563, 73.168, 15.953, -34.533, 0.176, 2.780, 88.175, -3.375
90.033, 73.474, 15.264, -34.447, 0.179, 2.800, 89.621, -3.116
91.508, 73.765, 14.577, -34.352, 0.181, 2.820, 91.073, -2.852
92.989, 74.043, 13.892, -34.248, 0.184, 2.840, 92.529, -2.583
94.475, 74.307, 13.209, -34.135, 0.187, 2.860, 93.990, -2.309
95.966, 74.558, 12.529, -34.014, 0.189, 2.880, 95.454, -2.031
97.462, 74.795, 11.851, -33.885, 0.192, 2.900, 96.923, -1.747
98.962, 75.018, 11.176, -33.749, 0.194, 2.920, 98.396, -1.460
100.467, 75.228, 10.504, -33.605, 0.196, 2.940, 99.872, -1.168
101.975, 75.425, 9.835, -33.456, 0.198, 2.960, 101.351, -0.872
103.488, 75.609, 9.169, -33.300, 0.201, 2.980, 102.833, -0.573
105.003, 75.779, 8.506, -33.139, 0.203, 3.000, 104.318, -0.269
106.522, 75.936, 7.847, -32.972, 0.204, 3.020, 105.806, 0.038
108.043, 76.079, 7.191, -32.800, 0.206, 3.040, 107.295, 0.348
109.568, 76.210, 6.538, -32.625, 0.208, 3.060, 108.787, 0.661
111.094, 76.328, 5.889, -32.445, 0.210, 3.080, 110.280, 0.978
112.623, 76.433, 5.244, -32.261, 0.211, 3.100, 111.775, 1.297
114.153, 76.525, 4.603, -32.074, 0.212, 3.120, 113.272, 1.619
115.685, 76.604, 3.965, -31.884, 0.214, 3.140, 114.769, 1.943
117.219, 76.671, 3.331, -31.691, 0.215, 3.160, 116.267, 2.269
118.753, 76.725, 2.701, -31.496, 0.216, 3.180, 117.766, 2.596
120.289, 76.766, 2.075, -31.299, 0.217, 3.200, 119.266, 2.926
121.825, 76.795, 1.453, -31.100, 0.218, 3.220, 120.766, 3.257
123.361, 76.812, 0.835, -30.899, 0.218, 3.240, 122.266, 3.589
124.897, 76.817, 0.221, -30.697, 0.219, 3.260, 123.766, 3.922
126.433, 76.809, -0.389, -30.494, 0.219, 3.280, 125.265, 4.256
127.969, 76.789, -0.995, -30.290, 0.219, 3.300, 126.764, 4.590
129.504, 76.757, -1.596, -30.085, 0.220, 3.320, 128.262, 4.924
131.038, 76.712, -2.226, -31.467, 0.220, 3.340, 129.760, 5.258
132.571, 76.649, -3.146, -46.014, 0.220, 3.360, 131.256, 5.592
134.103, 76.569, -4.029, -44.171, 0.219, 3.380, 132.750, 5.926
135.632, 76.477, -4.613, -29.183, 0.219, 3.400, 134.243, 6.259
137.160, 76.373, -5.192, -28.978, 0.219, 3.420, 135.734, 6.590
138.685, 76.257, -5.768, -28.773, 0.218, 3.440, 137.223, 6.921
140.208, 76.131, -6.339, -28.569, 0.217, 3.460, 138.710, 7.250
141.727, 75.993, -6.907, -28.366, 0.217, 3.480, 140.194, 7.577
143.244, 75.843, -7.470, -28.164, 0.216, 3.500, 141.676, 7.902
144.758, 75.683, -8.029, -27.963, 0.215, 3.520, 143.154, 8.226
146.268, 75.511, -8.584, -27.764, 0.214, 3.540, 144.630, 8.547
147.775, 75.328, -9.136, -27.567, 0.212, 3.560, 146.103, 8.865
149.277, 75.134, -9.683, -27.372, 0.211, 3.580, 147.572, 9.180
150.776, 74.930, -10.227, -27.180, 0.209, 3.600, 149.037, 9.493
152.270, 74.715, -10.767, -26.990, 0.208, 3.620, 150.499, 9.803
153.760, 74.489, -11.303, -26.804, 0.206, 3.640, 151.957, 10.109
155.245, 74.252, -11.835, -26.620, 0.204, 3.660, 153.411, 10.411
156.725, 74.005, -12.364, -26.441, 0.202, 3.680, 154.861, 10.710
158.200, 73.747, -12.889, -26.265, 0.200, 3.700, 156.306, 11.005
159.670, 73.479, -13.411, -26.094, 0.198, 3.720, 157.746, 11.296
161.134, 73.200, -13.930, -25.928, 0.196, 3.740, 159.182, 11.583
162.592, 72.911, -14.445, -25.767, 0.194, 3.760, 160.613, 11.865
164.044, 72.612, -14.957, -25.612, 0.191, 3.780, 162.038, 12.143
165.490, 72.303, -15.467, -25.463, 0.189, 3.800, 163.458, 12.416
166.930, 71.983, -15.973, -25.321, 0.186, 3.820, 164.873, 12.685
168.363, 71.654, -16.477, -25.185, 0.184, 3.840, 166.281, 12.949
169.789, 71.314, -16.978, -25.057, 0.181, 3.860, 167.684, 13.207
171.209, 70.965, -17.477, -24.937, 0.178, 3.880, 169.080, 13.461
172.621, 70.605, -17.973, -24.825, 0.175, 3.900, 170.470, 13.709
174.025, 70.236, -18.467, -24.721, 0.173, 3.920, 171.854, 13.952
175.422, 69.856, -18.960, -24.627, 0.170, 3.940, 173.231, 14.190
176.812, 69.467, -19.451, -24.543, 0.167, 3.960, 174.600, 14.422
178.193, 69.069, -19.940, -24.468, 0.163, 3.980, 175.963, 14.649
179.566, 68.660, -20.428, -24.403, 0.160, 4.000, 177.318, 14.871
180.931, 68.242, -20.915, -24.348, 0.157, 4.020, 178.666, 15.087
182.288, 67.814, -21.401, -24.305, 0.154, 4.040, 180.006, 15.297
183.635, 67.376, -21.887, -24.272, 0.151, 4.060, 181.338, 15.501
184.974, 66.929, -22.372, -24.251, 0.148, 4.080, 182.661, 15.700
186.303, 66.471, -22.857, -24.240, 0.144, 4.100, 183.977, 15.894
187.623, 66.005, -23.341, -24.242, 0.141, 4.120, 185.283, 16.081
188.934, 65.528, -23.827, -24.254, 0.138, 4.140, 186.581, 16.263
190.235, 65.042, -24.312, -24.279, 0.134, 4.160, 187.870, 16.440
191.525, 64.546, -24.798, -24.314, 0.131, 4.180, 189.150, 16.610
192.806, 64.040, -25.286, -24.361, 0.128, 4.200, 190.420, 16.776
194.077, 63.525, -25.774, -24.419, 0.124, 4.220, 191.680, 16.935
195.337, 62.999, -26.264, -24.489, 0.121, 4.240, 192.931, 17.089
196.586, 62.464, -26.755, -24.569, 0.118, 4.260, 194.171, 17.238
197.824, 61.919, -27.248, -24.660, 0.114, 4.280, 195.401, 17.381
199.052, 61.364, -27.744, -24.761, 0.111, 4.300, 196.621, 17.519
200.268, 60.800, -28.241, -24.872, 0.108, 4.320, 197.829, 17.652
201.472, 60.225, -28.741, -24.993, 0.104, 4.340, 199.027, 17.780
202.665, 59.640, -29.243, -25.123, 0.101, 4.360, 200.214, 17.902
203.846, 59.045, -29.749, -25.261, 0.098, 4.380, 201.389, 18.019
205.015, 58.440, -30.257, -25.408, 0.095, 4.400, 202.552, 18.132
206.171, 57.825, -30.768, -25.562, 0.092, 4.420, 203.703, 18.240
207.315, 57.199, -31.282, -25.724, 0.089, 4.440, 204.843, 18.343
208.446, 56.563, -31.800, -25.892, 0.086, 4.460, 205.970, 18.441
209.565, 55.916, -32.322, -26.066, 0.083, 4.480, 207.084, 18.535
210.670, 55.260, -32.847, -26.245, 0.080, 4.500, 208.186, 18.624
211.762, 54.593, -33.344, -24.883, 0.077, 4.520, 209.274, 18.710
212.840, 53.921, -33.558, -10.680, 0.074, 4.540, 210.350, 18.791
213.905, 53.251, -33.518, 1.986, 0.071, 4.560, 211.412, 18.868
214.957, 52.581, -33.482, 1.815, 0.068, 4.580, 212.461, 18.941
215.995, 51.912, -33.449, 1.647, 0.066, 4.600, 213.497, 19.010
217.020, 51.244, -33.419, 1.482, 0.063, 4.620, 214.520, 19.076
218.032, 50.576, -33.393, 1.320, 0.060, 4.640, 215.529, 19.138
219.030, 49.909, -33.370, 1.161, 0.058, 4.660, 216.526, 19.197
220.015, 49.242, -33.349, 1.006, 0.055, 4.680, 217.509, 19.253
220.986, 48.575, -33.332, 0.854, 0.053, 4.700, 218.479, 19.306
221.944, 47.909, -33.318, 0.706, 0.051, 4.720, 219.436, 19.355
222.889, 47.243, -33.307, 0.562, 0.048, 4.740, 220.380, 19.402
223.821, 46.577, -33.299, 0.422, 0.046, 4.760, 221.310, 19.446
224.739, 45.911, -33.293, 0.286, 0.044, 4.780, 222.227, 19.487
225.644, 45.245, -33.290, 0.155, 0.042, 4.800, 223.131, 19.526
226.535, 44.579, -33.289, 0.028, 0.040, 4.820, 224.022, 19.562
227.414, 43.913, -33.291, -0.095, 0.038, 4.840, 224.900, 19.597
228.279, 43.248, -33.295, -0.213, 0.036, 4.860, 225.764, 19.629
229.130, 42.582, -33.302, -0.327, 0.034, 4.880, 226.615, 19.658
229.968, 41.915, -33.311, -0.436, 0.032, 4.900, 227.453, 19.686
230.793, 41.249, -33.321, -0.541, 0.031, 4.920, 228.278, 19.712
231.605, 40.582, -33.334, -0.641, 0.029, 4.940, 229.089, 19.737
232.403, 39.915, -33.349, -0.737, 0.027, 4.960, 229.887, 19.759
233.188, 39.248, -33.366, -0.828, 0.026, 4.980, 230.672, 19.780
233.960, 38.580, -33.384, -0.914, 0.024, 5.000, 231.443, 19.799
234.718, 37.912, -33.404, -0.996, 0.023, 5.020, 232.201, 19.817
235.463, 37.244, -33.425, -1.073, 0.022, 5.040, 232.946, 19.834
236.195, 36.575, -33.448, -1.146, 0.020, 5.060, 233.677, 19.849
236.913, 35.905, -33.472, -1.215, 0.019, 5.080, 234.395, 19.864
237.617, 35.235, -33.498, -1.279, 0.018, 5.100, 235.100, 19.877
238.309, 34.565, -33.525, -1.338, 0.017, 5.120, 235.791, 19.889
238.987, 33.894, -33.553, -1.394, 0.016, 5.140, 236.469, 19.900
239.651, 33.222, -33.582, -1.444, 0.015, 5.160, 237.133, 19.910
240.302, 32.550, -33.611, -1.491, 0.014, 5.180, 237.784, 19.919
240.940, 31.877, -33.642, -1.534, 0.013, 5.200, 238.421, 19.927
241.564, 31.204, -33.673, -1.572, 0.012, 5.220, 239.045, 19.935
242.174, 30.529, -33.706, -1.607, 0.011, 5.240, 239.656, 19.942
242.771, 29.855, -33.738, -1.637, 0.010, 5.260, 240.253, 19.948
243.355, 29.179, -33.772, -1.663, 0.009, 5.280, 240.837, 19.954
243.925, 28.503, -33.805, -1.685, 0.009, 5.300, 241.407, 19.959
244.481, 27.826, -33.839, -1.704, 0.008, 5.320, 241.963, 19.964
245.024, 27.149, -33.874, -1.719, 0.007, 5.340, 242.506, 19.968
245.554, 26.471, -33.908, -1.730, 0.007, 5.360, 243.036, 19.972
246.070, 25.792, -33.943, -1.737, 0.006, 5.380, 243.551, 19.975
246.572, 25.112, -33.978, -1.740, 0.006, 5.400, 244.054, 19.978
247.061, 24.432, -34.013, -1.740, 0.005, 5.420, 244.542, 19.981
247.536, 23.751, -34.047, -1.737, 0.005, 5.440, 245.017, 19.984
247.997, 23.069, -34.082, -1.730, 0.004, 5.460, 245.479, 19.986
248.445, 22.387, -34.116, -1.720, 0.004, 5.480, 245.926, 19.988
248.879, 21.704, -34.151, -1.706, 0.004, 5.500, 246.360, 19.989
249.299, 21.020, -34.184, -1.689, 0.003, 5.520, 246.781, 19.991
249.706, 20.337, -34.186, -0.094, 0.003, 5.540, 247.188, 19.992
250.099, 19.659, -33.894, 14.598, 0.003, 5.560, 247.581, 19.993
250.479, 18.992, -33.339, 27.740, 0.002, 5.580, 247.961, 19.994
250.846, 18.336, -32.783, 27.807, 0.002, 5.600, 248.327, 19.995
251.200, 17.692, -32.226, 27.873, 0.002, 5.620, 248.681, 19.996
251.541, 17.058, -31.667, 27.940, 0.002, 5.640, 249.022, 19.996
251.869, 16.436, -31.107, 28.007, 0.002, 5.660, 249.351, 19.997
252.186, 15.825, -30.545, 28.073, 0.001, 5.680, 249.668, 19.997
252.490, 15.226, -29.983, 28.138, 0.001, 5.700, 249.972, 19.998
252.783, 14.637, -29.419, 28.203, 0.001, 5.720, 250.265, 19.998
253.064, 14.060, -28.853, 28.267, 0.001, 5.740, 250.546, 19.999
253.334, 13.495, -28.287, 28.329, 0.001, 5.760, 250.816, 19.999
253.593, 12.940, -27.719, 28.391, 0.001, 5.780, 251.075, 19.999
253.841, 12.397, -27.150, 28.452, 0.001, 5.800, 251.323, 19.999
254.078, 11.866, -26.580, 28.511, 0.001, 5.820, 251.560, 19.999
254.305, 11.345, -26.008, 28.569, 0.001, 5.840, 251.787, 19.999
254.522, 10.837, -25.436, 28.625, 0.000, 5.860, 252.004, 20.000
254.729, 10.340, -24.862, 28.680, 0.000, 5.880, 252.210, 20.000
254.926, 9.854, -24.288, 28.733, 0.000, 5.900, 252.408, 20.000
255.113, 9.380, -23.712, 28.784, 0.000, 5.920, 252.595, 20.000
255.292, 8.917, -23.135, 28.834, 0.000, 5.940, 252.773, 20.000
255.461, 8.466, -22.558, 28.881, 0.000, 5.960, 252.943, 20.000
255.622, 8.026, -21.979, 28.928, 0.000, 5.980, 253.103, 20.000
255.774, 7.598, -21.400, 28.972, 0.000, 6.000, 253.255, 20.000
255.917, 7.182, -20.819, 29.014, 0.000, 6.020, 253.399, 20.000
256.053, 6.777, -20.238, 29.055, 0.000, 6.040, 253.534, 20.000
256.180, 6.384, -19.656, 29.093, 0.000, 6.060, 253.662, 20.000
256.301, 6.002, -19.074, 29.130, 0.000, 6.080, 253.782, 20.000
256.413, 5.633, -18.490, 29.165, 0.000, 6.100, 253.895, 20.000
256.519, 5.274, -17.907, 29.198, 0.000, 6.120, 254.000, 20.000
256.617, 4.928, -17.322, 29.229, 0.000, 6.140, 254.099, 20.000
256.709, 4.593, -16.737, 29.259, 0.000, 6.160, 254.191, 20.000
256.794, 4.270, -16.151, 29.286, 0.000, 6.180, 254.276, 20.000
256.874, 3.959, -15.565, 29.312, 0.000, 6.200, 254.355, 20.000
256.947, 3.659, -14.978, 29.336, 0.000, 6.220, 254.428, 20.000
257.014, 3.372, -14.391, 29.359, 0.000, 6.240, 254.496, 20.000
257.076, 3.095, -13.803, 29.379, 0.000, 6.260, 254.558, 20.000
257.133, 2.831, -13.215, 29.399, 0.000, 6.280, 254.614, 20.000
257.184, 2.579, -12.627, 29.416, 0.000, 6.300, 254.666, 20.000
257.231, 2.338, -12.038, 29.433, 0.000, 6.320, 254.713, 20.000
257.273, 2.109, -11.449, 29.448, 0.000, 6.340, 254.755, 20.000
257.311, 1.892, -10.860, 29.461, 0.000, 6.360, 254.793, 20.000
257.345, 1.686, -10.271, 29.473, 0.000, 6.380, 254.826, 20.000
257.375, 1.493, -9.681, 29.484, 0.000, 6.400, 254.856, 20.000
